Subject,Condition,Speed,Target,Balance,n_samples,Comp1,Comp2,Comp3,Comp4,Comp5
BMH01,s0a0b0,0,0,0,13200,-1.6259647465380915,-5.178856185193022,-2.2279113410469895,0.6317440011439327,-0.4183679783622043
BMH01,s0a0b1,0,0,1,12500,0.818789064794604,-5.252398317080182,-0.20242494885027962,-0.37984996650345104,-1.6692408124437033
BMH01,s0a0b2,0,0,2,12700,-2.4160434427326862,-5.017923720444348,-2.8521298669241326,0.9360425646897866,-0.9841072864672975
BMH01,s0a1b0,0,1,0,13200,-1.7603550282162868,-1.4820130389241077,-2.3637263917311544,-0.3729737231727388,0.6019129946747279
BMH01,s0a1b1,0,1,1,11400,-1.576281543559246,-0.9249562448257991,-1.8778655102377426,-0.6110131387525997,0.2786707033594975
BMH01,s0a1b2,0,1,2,15000,-0.25794282993948614,0.9306387673221082,1.9004128233250388,0.33713539376555146,0.9654907325017299
BMH01,s0a2b0,0,2,0,12800,2.8107777901949844,3.092781771568367,3.8347135002208743,0.6171267033732225,2.059372866444706
BMH01,s0a2b1,0,2,1,13400,-1.0443412158543048,2.0087245955843076,0.942357812849149,1.3190723743836588,0.5213751145170169
BMH01,s1a0b0,1,0,0,12200,-1.6478532653505598,-2.6095409235283515,-2.552337023621728,0.5375816309220122,-0.8628398302983531
BMH01,s1a0b1,1,0,1,12100,-1.053280440052968,-2.2581414544851315,-1.7783211274903228,-0.09303678481208878,-1.3443220990754516
BMH01,s1a0b2,1,0,2,12300,-1.3331616058705684,-3.374877205182178,-1.998791799552536,0.5951947017921154,-1.0922258654313943
BMH01,s1a1b0,1,1,0,11700,-1.1597565222020394,-0.28535999609894186,-1.2805170237406809,-0.8605315575802013,-0.04279156521686306
BMH01,s1a1b1,1,1,1,11700,1.2064027961327612,0.00906794501641566,1.770942480039947,-0.44019170917104183,0.8481217376011537
BMH01,s1a1b2,1,1,2,13100,-0.7178381485620055,1.5125988405389172,1.3093457160507194,0.048650488197684034,0.06418733255375694
BMH01,s1a2b0,1,2,0,12800,-0.8972386796932237,0.7762823891058224,-0.5587577063839749,0.9299849029401623,0.9923828533828697
BMH01,s1a2b1,1,2,1,13200,-1.3004539255067544,6.509769200423017,-4.950509099512228,0.6206319091160802,-0.09398701048413803
BMH01,s1a2b2,1,2,2,15800,-1.8418871792930565,2.740154177603522,0.9310518118016721,0.981017940354617,1.0922448634596853
BMH01,s2a0b0,2,0,0,12200,0.292909590513332,-0.6210240058362559,-0.7969532967638233,-0.6444175824693307,-1.2977050692964267
BMH01,s2a0b1,2,0,1,11200,0.6140509904588183,0.46248203563147544,-3.526662692409758,-0.23810802466537082,-0.45445783766877607
BMH01,s2a0b2,2,0,2,9200,1.3623509120600779,-1.3999327558553065,0.2817979886492579,-1.18065687246098,-0.8931073651631951
BMH01,s2a1b0,2,1,0,11900,3.2626892776872207,-0.318741731238943,2.4108070508205977,-1.1986155125461309,0.46098313663097124
BMH01,s2a1b1,2,1,1,11700,1.4964201647863657,-0.9818147966908863,2.012566424118743,-1.8427155616611288,-0.9523808665998945
BMH01,s2a1b2,2,1,2,11400,0.23085973319276543,1.3480728326355693,0.3344799309203783,-0.8193307422626404,-0.3809409839916334
BMH01,s2a2b0,2,2,0,12100,3.65938433715652,2.8660103316468275,3.6340378560162687,0.050329145796399126,0.6722703947134315
BMH01,s2a2b1,2,2,1,11900,3.214072800391057,3.595703850538259,3.785350756528427,-0.051759869945815336,0.8151599187595949
BMH01,s2a2b2,2,2,2,12900,1.2700479910523208,2.328361245174182,3.4304909015635308,-0.11077659669175827,0.1925242192430645
BMH02,s0a0b0,0,0,0,12400,-1.4423123612883384,-2.7835405484162266,0.0018566333119802642,-0.8490171748890952,-0.1911268161469854
BMH02,s0a0b1,0,0,1,16900,-1.1327746445292612,-0.09406642470811809,0.7347983351481652,-0.839317193478063,-0.3136518833576799
BMH02,s0a0b2,0,0,2,16300,-1.516867549538165,-1.4151540664334532,0.1695138522131057,-0.2515696611173196,-0.32002956490573536
BMH02,s0a1b0,0,1,0,13800,-0.65494884853664,-1.1806814302662019,0.2856667949924948,-0.15293075400314815,-0.22197049755363282
BMH02,s0a1b1,0,1,1,17100,-1.167467288848584,-0.6519010284652073,-0.13845386315418934,0.6437680617000137,0.3899070525352294
BMH02,s0a1b2,0,1,2,17700,-1.47757588295087,2.6744377945319746,0.7395481703759164,-0.5315581071063469,0.4223986470525699
BMH02,s0a2b0,0,2,0,14000,-0.20870977338967978,-0.7307539417588581,0.3375710292867539,-0.4727905522085239,-0.25055961505338625
BMH02,s0a2b1,0,2,1,16900,-0.8707589128428308,-0.5670271574531146,0.36816186632734754,0.45858092877361856,0.2933494351520305
BMH02,s1a0b0,1,0,0,12800,-0.22688642197406422,-0.5230816176593669,-0.17475560947348756,-0.8933047878165898,-0.20603307844278537
BMH02,s1a0b1,1,0,1,9300,-0.74475076827629,-1.588195566446247,-0.5198800461170849,0.3456095184387852,-0.5267613900497958
BMH02,s1a0b2,1,0,2,11300,0.26542539850753605,-0.5808789165757154,0.12980483594970338,-0.6479105819356277,-0.20129663405800402
BMH02,s1a1b0,1,1,0,14400,-0.7948618367838929,-1.5390841304904268,-0.048662498521643005,0.05841758320319921,-0.2845136171904984
BMH02,s1a1b1,1,1,1,14300,-0.8779503513128841,-1.0663703533418833,-0.02899595383547786,0.5481759138358205,-0.09586229917240448
BMH02,s1a1b2,1,1,2,16500,-0.13697938839631382,0.5993701633353506,-0.21959279423680758,0.625346848115388,0.20359706539261832
BMH02,s1a2b0,1,2,0,14400,0.4136070279237541,-0.215450770973879,-0.09555863707182125,0.38795324846913487,-0.038389174715372905
BMH02,s1a2b1,1,2,1,14400,0.1323510034029391,0.07202610440176177,-0.7386164334957562,1.4349130189697297,0.5642881827420412
BMH02,s1a2b2,1,2,2,16700,-0.11523233878248917,0.5445721911620053,-0.3894468668853491,0.5872979619502162,0.25702042041933776
BMH02,s2a0b0,2,0,0,13400,0.16178959096804651,-0.19596483885626972,0.14204288611646157,-0.802306897813529,-0.22195630439924224
BMH02,s2a0b1,2,0,1,12500,1.359065151215545,0.44855830438803895,-0.16480189267812392,-0.21396622624855477,-0.052552191462607326
BMH02,s2a0b2,2,0,2,12100,2.1084917643694348,0.8008375490993939,-0.5844597686091433,-0.3039584487868828,-0.07193364486475377
BMH02,s2a1b0,2,1,0,13300,1.2837380339589515,0.6272611760716624,0.22075483299806817,-0.28816609802473897,-0.061455096703098615
BMH02,s2a1b1,2,1,1,13100,1.3598431231989467,2.0098189563228717,0.16173228617420846,-0.0534844907545721,0.11398840122845237
BMH02,s2a1b2,2,1,2,14100,0.4660765738923477,0.22468668416042123,0.12886138068666264,0.5649127621274451,0.08795325553872518
BMH02,s2a2b0,2,2,0,12700,2.3312094121731866,1.1496114600448746,-0.24677114527511004,-0.8346281045940557,-0.11738648790257913
BMH02,s2a2b1,2,2,1,12900,1.0227215503527947,1.0815126732725953,-0.3572246348642599,0.336185106169348,0.09033996182011662
BMH02,s2a2b2,2,2,2,11900,2.7540301717515336,2.39916977223706,-0.3242125093406826,0.7237715119835815,0.2791321232054155
BMH06,s0a0b0,0,0,0,13500,-0.5081184966275055,-0.41146545477671004,-2.122759393751152,-1.3693578438546419,-0.5025232905270404
BMH06,s0a0b1,0,0,1,11600,-0.6535333191505236,-0.3119526086247142,-2.033700280086248,-0.6912377685320897,-0.5722418587849689
BMH06,s0a0b2,0,0,2,11200,-0.622840311600917,-0.4853524039408726,-2.0476392053962074,-0.6600283502781208,-0.6675433429049833
BMH06,s0a1b0,0,1,0,12100,-0.7137079045891815,-0.8595428756063968,-0.9391792614107732,-0.19568386333799884,-0.356364137571283
BMH06,s0a1b1,0,1,1,11900,-0.5237519904093895,-0.7764971623854573,-0.8446347010657776,-0.5847493822950289,-0.6404663682573919
BMH06,s0a1b2,0,1,2,14300,0.8009117117411937,0.07929193456742167,1.4723135920728165,-1.1243137140007722,-0.7355360965490612
BMH06,s0a2b0,0,2,0,15000,-1.3113847610696685,-1.2508557380633367,0.9224513784973531,-0.062024165002292776,0.36626388549145483
BMH06,s0a2b1,0,2,1,15200,-0.34289279403837797,-0.6177418181685127,2.100628423433018,-0.04147089326340585,0.31376376075759393
BMH06,s0a2b2,0,2,2,14900,0.7733966658769476,0.7020398075899699,3.520245236289302,-0.7638988983967789,0.188939609320473
BMH06,s1a0b0,1,0,0,11000,-1.3370528491315778,-1.1435934540753872,-1.3142129114448664,0.09043264677132333,-0.13331049274252707
BMH06,s1a0b1,1,0,1,11300,-0.4786443452475203,-0.3232524237539463,-2.000739379328742,0.3033116451113762,0.06288140301980473
BMH06,s1a0b2,1,0,2,12000,-1.21536981283788,-0.8413332127293989,-1.731909922427864,0.1324118505834134,0.030480798748221148
BMH06,s1a1b0,1,1,0,11400,-0.5592746780523574,-0.6779616724598472,-1.0905423281972664,-0.1928075095456783,-0.12773185910029264
BMH06,s1a1b1,1,1,1,10900,-0.6573415173523606,-0.3201045910641376,-0.03356729706695739,0.44048312569850445,0.21946204638178418
BMH06,s1a1b2,1,1,2,12400,-0.22313808894099985,-0.030879463129311467,-0.06091044044000101,-1.05795408731536,-0.5685989435396152
BMH06,s1a2b0,1,2,0,11300,-0.1954447066277143,-0.10871118269001151,-1.011576927337092,0.4796804033756044,0.04792849994654001
BMH06,s1a2b1,1,2,1,12200,-0.5081302603647657,-0.27531980445792287,0.5183035500598967,0.5318550110268291,0.4647403430067373
BMH06,s1a2b2,1,2,2,9800,-0.04677544989258594,0.1550883282581961,1.6561331937607207,0.19941033580763098,0.07888059122022825
BMH06,s2a0b0,2,0,0,10800,1.4595115346738239,1.484420426060822,0.4287926770127487,1.0110634326669639,0.7092907018391301
BMH06,s2a0b1,2,0,1,10900,0.5878349272296088,0.813349501191253,0.38464292190179805,0.882248609687005,0.5140816839764024
BMH06,s2a0b2,2,0,2,11700,0.5181430038460744,0.6141636304390705,0.2609525831283875,0.6849608014741269,0.1979055427634553
BMH06,s2a1b0,2,1,0,12500,2.6027118549806345,1.939737296897404,-0.9743335778664812,0.7173929973250083,0.29002012364960794
BMH06,s2a1b1,2,1,1,11600,0.32249708223506385,0.568517108225075,-0.2722813961008596,0.8381665617580198,0.3170548028820516
BMH06,s2a1b2,2,1,2,11300,0.8710329923730794,0.6175542428077865,1.7962679545869298,0.5249319017164642,-0.06020758400354493
BMH06,s2a2b0,2,2,0,11900,0.40669559020146917,0.36567180680903333,-0.1818002207297472,1.0259740163700892,0.5114614335995853
BMH06,s2a2b1,2,2,1,11900,-0.12615655040193943,0.16201263038682095,0.9759495361397794,0.9364270501808609,0.7381429694718641
BMH06,s2a2b2,2,2,2,12100,1.6840608344600112,1.2911307815190962,0.9352059963880996,-1.1272462031907908,-0.6016680308659942
BMH07,s0a0b0,0,0,0,11600,-3.278352080633147,-2.913538341694874,-2.9728051504913955,0.30530093522794327,0.4041151442708536
BMH07,s0a0b1,0,0,1,12100,-3.14578140212418,-3.2476134358658726,-2.9660935549698575,0.2970630697007002,0.5295758346298104
BMH07,s0a0b2,0,0,2,11100,-2.7296524157994813,-2.389606276027122,-0.9069426321813647,0.42424291388263735,-0.05286365914841328
BMH07,s0a1b0,0,1,0,13100,4.008986389804478,-0.8720587541613847,-0.013128745776323426,-0.07735505070229154,0.318344039248712
BMH07,s0a1b1,0,1,1,12300,2.744578736785866,-0.36837817125095457,1.020588754277645,0.19586914092408106,-0.503983312928728
BMH07,s0a1b2,0,1,2,15800,4.548035659712471,-0.19124057776461872,0.5743234863009571,0.017120104253677514,-0.8008908615002482
BMH07,s0a2b0,0,2,0,12000,1.3505911911621193,-1.4651782836088092,0.4521216210284685,0.05103565165856112,0.019058427283881255
BMH07,s0a2b1,0,2,1,12600,1.9693025249857214,-1.7526808448248223,-0.41756669346651104,-0.31162656035676306,0.03252825689423875
BMH07,s0a2b2,0,2,2,16300,-8.328746796570513,-2.377393860880963,4.015740694238686,1.4965859463409599,0.6800687018095786
BMH07,s1a0b0,1,0,0,10900,-2.3010847244453445,-1.4409900481172835,-1.0102402236597725,0.11094191595480778,-0.8056904135977286
BMH07,s1a0b1,1,0,1,10200,-2.9026377391408293,-2.410533802041969,-2.9122822689172065,0.3051765583141172,0.5322316170847728
BMH07,s1a0b2,1,0,2,11300,-1.1316668253058992,-0.29172329299149663,-0.9670406691352224,-0.07713618211319899,-0.3691610173517666
BMH07,s1a1b0,1,1,0,10000,1.7646407026331734,0.7320687511634906,-0.01847648595586274,0.2059326851178725,-0.05891172298105986
BMH07,s1a1b1,1,1,1,10600,3.440496023376437,1.9654422532995866,-1.1684684065345794,-0.3914422664258917,0.010320244281153568
BMH07,s1a1b2,1,1,2,13000,2.368873135911112,-0.9700076708656367,0.12139826631097272,-0.10814338241460156,-0.8391923579189299
BMH07,s1a2b0,1,2,0,10100,1.1272780500310045,0.8438200409076172,0.4542745961753495,0.21918056999309515,0.14704983072566707
BMH07,s1a2b1,1,2,1,10800,2.9714212289646325,1.7854566565413148,-0.6647762222452326,-0.2216696441424278,0.5354052775725998
BMH07,s1a2b2,1,2,2,10900,2.647362616061686,0.008897444334481835,-0.06679976280228468,-0.3806835304275175,-0.3510492016529208
BMH07,s2a0b0,2,0,0,11300,4.685802370819806,3.9420159009559432,-1.583774239417438,-1.2262660444646272,0.23870048535982152
BMH07,s2a0b1,2,0,1,10200,0.5422894932937204,1.2959451316568629,-1.3747933995614998,-0.6540179668462919,-0.769141221842985
BMH07,s2a0b2,2,0,2,9900,1.681479209310644,2.6270210305935393,0.13220195906423923,-0.5159483295277493,-0.8588374065579628
BMH07,s2a1b0,2,1,0,10600,0.3480209750588134,0.6451437684064504,-0.8705642664747214,-0.10265542084709041,-0.20164970506590768
BMH07,s2a1b1,2,1,1,10800,0.9384163019187616,1.0185003305782925,-0.8146402852814393,-0.37029704105056854,-0.38962263904498984
BMH07,s2a1b2,2,1,2,10900,1.6768261302759109,1.9777545111151082,-0.3907488641015759,-0.4574539867380953,-0.18150921015968963
BMH07,s2a2b0,2,2,0,11000,-9.889507179196649,1.1756352450305014,4.986818452152079,0.387163795360616,0.916049065185621
BMH07,s2a2b1,2,2,1,10700,6.206824305821787,4.5220350718350355,-1.0898447160438145,-0.23473619955938327,0.6516197539605185
BMH07,s2a2b2,2,2,2,11500,-9.70692576387743,1.101847983761054,6.002065199706919,0.32570794264159036,1.1172641378211206
BMH08,s0a0b0,0,0,0,11100,-4.030710187821443,-0.7882796685746717,-1.2426106183709156,-0.1026840331551739,-0.33289150912111337
BMH08,s0a0b1,0,0,1,17900,-5.387669670101189,-3.7945429360452767,-1.600566104804997,-0.36616698332353187,-0.7428137616201025
BMH08,s0a0b2,0,0,2,20100,-5.703965961293507,-4.803398093026322,-1.369167874655789,-0.37207782163584563,-0.9652281923643603
BMH08,s0a1b0,0,1,0,16600,1.0808738974141652,-0.9196132352365555,0.40868244550658167,-0.13425164604845685,-0.4946277859390115
BMH08,s0a1b1,0,1,1,16800,5.617965905916603,2.8058618111926728,0.9968271560878185,0.5905305887067709,0.798451787237145
BMH08,s0a1b2,0,1,2,20300,1.5999656481262363,0.4762791759547666,1.6516608395336874,0.6131170402099925,-0.041560616456775924
BMH08,s0a2b0,0,2,0,18000,0.3081609610941886,-1.5646369292290259,-0.8821762326117223,0.2750652680007211,-0.2878796373467335
BMH08,s0a2b1,0,2,1,17600,-0.27904807754710503,-2.9860885146448823,-0.8931329509168835,0.13742769095856908,-0.6201450873342098
BMH08,s1a0b0,1,0,0,13300,-5.1927395631602575,-2.3582815715466108,-1.554099379697467,-0.2845827588445697,-0.5107704551288083
BMH08,s1a0b1,1,0,1,11700,-4.80226486676645,-2.036431658550813,-1.8113963230826073,-0.4518111268009746,-0.4922089772633127
BMH08,s1a0b2,1,0,2,19000,-4.465654040866796,-3.1495395888208813,-1.0815625154502961,-0.49049905245571274,-0.6139518488729808
BMH08,s1a1b0,1,1,0,12500,-0.5984757323083479,-1.668406309089478,-1.986946402585999,0.0014941816518308259,-0.0738763809147846
BMH08,s1a1b1,1,1,1,15700,0.8375608736538077,0.19177845816622713,0.47532796172247516,0.21157140690902587,-0.09841101897492321
BMH08,s1a1b2,1,1,2,16800,-1.0711198697942665,-2.6840177301958,-0.5479571630217452,0.3188936267240912,-0.21406751184806913
BMH08,s1a2b0,1,2,0,16000,0.286265844051302,0.17028320658871451,0.11166431746649143,-0.21341511659037224,0.34644262523139924
BMH08,s1a2b1,1,2,1,15800,-1.3946322182041926,-2.6165122362358715,-1.1517594888114804,0.18205501164919982,-0.22883716203410967
BMH08,s2a0b0,2,0,0,9500,2.5283778145340317,6.126497310120868,0.13980570057053796,-0.032956669406763124,0.6568784611001643
BMH08,s2a0b1,2,0,1,10300,3.1443171276543445,6.319293995965312,0.5808818348793596,0.21746175081531613,0.3116362553718499
BMH08,s2a0b2,2,0,2,7300,1.6295877418557956,3.2023067758098414,-0.6679617642687834,-0.055953818824953545,0.008890741054529446
BMH08,s2a1b0,2,1,0,11600,1.5343161206727902,3.1912023825477753,0.8253507084999132,-0.02084113466111868,0.9750628620436286
BMH08,s2a1b1,2,1,1,12000,2.205850156444181,2.6653956613268095,1.4279475582403895,0.08288124829249945,0.7077359804979021
BMH08,s2a1b2,2,1,2,14600,5.443017956774151,4.270821716563596,2.8766991008546277,0.15206019554053882,0.5134759996700292
BMH08,s2a2b0,2,2,0,11700,3.478970443451265,3.854504631918402,1.8840062528471355,-0.4068366090776378,0.11942627934073591
BMH08,s2a2b1,2,2,1,12900,5.438792361694355,5.243679116880184,3.282163141912027,-0.23227309419802333,1.55772314671245
BMH08,s2a2b2,2,2,2,13700,3.4573866879726465,2.789583656182081,1.0495326108305187,0.0847135296352635,1.3267652542731552
BMH09,s0a0b0,0,0,0,17300,1.3992489005949578,-4.5880028629115515,-1.7204373287786188,-0.5410822176383184,-0.5618014411611865
BMH09,s0a0b1,0,0,1,13100,0.8309565974349098,-4.39331764270329,-1.4194650076525213,-0.4806117127376308,-0.4361005995071095
BMH09,s0a0b2,0,0,2,12900,0.3545637416991074,-3.3700250127714706,-1.6678381647683227,-0.6905366615640426,-0.6530905088111755
BMH09,s0a1b0,0,1,0,12900,-2.1325563916409767,-1.5849484377727423,0.402004872397206,0.1965215090556712,0.06947310341484382
BMH09,s0a1b1,0,1,1,13300,-1.8208657102512176,-1.6328338695507223,0.7213112911925367,0.9119989011621811,0.014993485811507315
BMH09,s0a1b2,0,1,2,14400,-1.7140257627110473,-0.8159306951344714,-0.15179032746053675,0.5560628176922476,-0.17739347385485094
BMH09,s0a2b0,0,2,0,11100,-1.7628435446177837,-1.185656360525969,0.3362561788098287,-0.17604124690676787,-0.06606374692543465
BMH09,s0a2b1,0,2,1,13900,-2.69574239531434,0.3248487465782231,0.5660745554835429,0.8282126031970374,-0.02347790047971771
BMH09,s0a2b2,0,2,2,15600,-2.00213689159608,-2.7885285965025726,1.1304796298372506,1.0473283472122499,-0.023163415820999355
BMH09,s1a0b0,1,0,0,12800,2.544183287635314,-1.9061579971765195,-0.5754642134440163,-1.1393694420112594,0.32673620744611553
BMH09,s1a0b1,1,0,1,12600,1.9221774300792172,-1.383964326496956,-0.5516482641073193,-0.31799448116293483,-0.3992426120286123
BMH09,s1a0b2,1,0,2,12000,2.556784696334791,-1.6285031365017084,-1.240011271366278,-0.9724921704703271,-0.1993643156429977
BMH09,s1a1b0,1,1,0,11200,0.4919609111870503,-0.49572259005383007,-0.19492231570545973,-0.16308087993232195,-0.09865786407848509
BMH09,s1a1b1,1,1,1,11700,0.024578441823793765,1.5714801508313743,0.27500777579596725,-0.004594635618214742,-0.10916864866892705
BMH09,s1a1b2,1,1,2,12400,-0.47030668527413105,0.28512709903681904,-0.06501367342824341,0.5486130459699871,-0.17650592354139502
BMH09,s1a2b0,1,2,0,11400,-0.69460736245012,-1.294381210748958,0.35983091598833666,-0.02812392213477303,0.019811694859182435
BMH09,s1a2b1,1,2,1,12600,-1.2908762389233468,0.5343957332390509,0.7551419832916968,0.04008358482723348,0.2504609843949223
BMH09,s1a2b2,1,2,2,12900,0.24847795769735684,0.7526345485782231,-0.4743080783563438,0.04691571841959143,-0.31933197165320026
BMH09,s2a0b0,2,0,0,12700,2.1587998401403055,0.8699662869364677,0.4240688713521043,-0.35387578273592485,0.4918497743577187
BMH09,s2a0b1,2,0,1,12200,1.4625991452940412,1.4795755186446429,-0.1234883502454628,-0.5662673824664959,0.7208055262090994
BMH09,s2a0b2,2,0,2,12600,2.317103482481734,1.1768303300712504,0.35404980963114485,-0.4481314481949026,0.7013451944826842
BMH09,s2a1b0,2,1,0,12900,-0.7880817688491486,3.617604160969202,0.5614638111276882,0.13179518377223393,0.07017644073754602
BMH09,s2a1b1,2,1,1,12800,0.39909019501821286,2.756638440077036,0.57245712061647,0.3728207820671608,-0.19021804824401375
BMH09,s2a1b2,2,1,2,12800,-0.6027590461585534,3.5267477599783312,0.272942608846935,0.4991477364480893,-0.14377317682824062
BMH09,s2a2b0,2,2,0,13000,0.5839338105684364,3.3087730724674476,0.1714780010162466,0.21476249601825648,1.0200475427531008
BMH09,s2a2b1,2,2,1,11700,-1.0652130268441877,6.245664340061477,0.6458437044764155,-0.4184722145521933,-0.16815389301477515
BMH09,s2a2b2,2,2,2,13000,0.13461093675129565,3.2822279457444954,1.0249478788415327,0.5258918093212901,0.26810503289683263
BMH10,s0a0b0,0,0,0,18400,-0.39402689713268263,-1.0154217696419818,0.5663207125517341,-0.4012127252347098,-0.976061584203188
BMH10,s0a0b1,0,0,1,18900,0.13034489562028184,-1.795849081110118,-0.2741682478864824,-0.33937126479784785,-0.5841440641688724
BMH10,s0a0b2,0,0,2,21500,-0.707486717093511,-1.3570589309668788,0.15247904713407542,-0.38128783020572254,0.034562625469475035
BMH10,s0a1b0,0,1,0,12700,-1.2273180146395237,0.8811211375893486,0.12932201655726883,0.0016674066734160197,0.42012597150401093
BMH10,s0a1b1,0,1,1,18700,-1.9976456149148971,0.8941927512437128,-0.18909080123008504,0.13075889410262562,0.6713669345507078
BMH10,s0a1b2,0,1,2,19600,-1.094923912869717,-0.8669588810145721,-0.380466732706438,0.25356162311400965,0.38703144304139914
BMH10,s0a2b0,0,2,0,17700,-1.3823104594926146,0.9298950340499628,0.8979962579830253,-0.11510596191316007,-0.4766225299317086
BMH10,s0a2b1,0,2,1,17900,-1.3082326913162172,0.6707327811578976,-0.5402752121238893,-0.19712069746899008,0.15525437400372086
BMH10,s0a2b2,0,2,2,23400,-0.3724395050925124,-1.2886776950551682,-0.4682362599668067,0.32277551202792004,0.7419870411313185
BMH10,s1a0b0,1,0,0,13500,1.0163807730151446,-0.5312532925015604,0.11974830340846569,-0.16395559010924618,-0.48412935054353673
BMH10,s1a0b1,1,0,1,10700,1.2254948683781515,0.6386661545914558,0.1340651532581631,0.1331381437660237,0.01991466243781004
BMH10,s1a0b2,1,0,2,11000,0.5672473726127932,-0.4018119461589911,0.07996804093894151,-0.10166975395861184,-0.22808049562973978
BMH10,s1a1b0,1,1,0,19300,-0.3886288072793838,-0.07582122419300212,0.06976133431905505,0.06688243158050468,-0.15993336557539925
BMH10,s1a1b1,1,1,1,13100,-0.3971387180326045,-0.006481952226357397,-0.1481692959455968,-0.5191841114743299,-0.4471111450113709
BMH10,s1a1b2,1,1,2,15500,-0.11403950173490769,-0.5451800512438656,-0.3041382243890289,-0.045243090660040834,0.04324135796798765
BMH10,s1a2b0,1,2,0,11200,0.9704464827260275,0.31996833373769346,-0.09184578214389869,-0.23417259084384837,-0.4927402289460153
BMH10,s1a2b1,1,2,1,11100,0.5781740249924304,0.2964989645229685,-0.04324213911504382,-0.35144678218929193,-0.547475442288511
BMH10,s1a2b2,1,2,2,17700,0.037563523454809816,0.26814667145671167,-0.29137573479651974,0.252686821813954,0.6753253951884048
BMH10,s2a0b0,2,0,0,11500,1.4161477089019188,0.9574118341992548,0.31622717275060486,0.2417830745694757,-0.042852317837771915
BMH10,s2a0b1,2,0,1,11900,1.2480914138219354,0.7412670265913689,0.0803845392648816,0.48283703553317614,-0.130215010412487
BMH10,s2a0b2,2,0,2,11500,1.0296360629427672,0.14539949749127143,0.49926653298080037,0.47917257215823617,0.3163467950535663
BMH10,s2a1b0,2,1,0,13000,1.4127086013996282,0.4120416192360756,0.021140817245495127,-0.06903051736632869,-0.4233717628561552
BMH10,s2a1b1,2,1,1,7000,0.25687585907658733,1.443899719540245,0.052653437896252146,-0.1885090143511477,1.3407519523669715
BMH10,s2a1b2,2,1,2,11400,1.0560415391149904,-0.1251129844892097,0.22351267328414978,0.29388458993030947,-0.11658395737976701
BMH10,s2a2b0,2,2,0,12300,1.2466939252333702,1.4562861020688174,0.050504319893927556,0.29055526771302104,-0.04293755182357573
BMH10,s2a2b1,2,2,1,12000,1.3593675388687663,1.1628472233744447,-0.15926924264922665,0.00044756823213846895,-0.3308520757974611
BMH10,s2a2b2,2,2,2,7200,1.058047897858151,1.1528997082949148,0.19095991860897432,0.5544071486877332,1.1351927664835033
BMH13,s0a0b0,0,0,0,16400,-2.7249442364489123,-4.692760022080336,-1.0185593827383201,-0.11069102545065836,-0.4699443348156403
BMH13,s0a0b1,0,0,1,12500,-1.5124574658344137,-3.8953804247805004,-1.7355948664725103,-0.66643401467096,-0.3096402230824136
BMH13,s0a0b2,0,0,2,15500,-2.12743100884613,-3.934507520181909,-1.0752216268906598,-0.2065434618002496,-0.5526875531366603
BMH13,s0a1b0,0,1,0,14100,-2.173946844002578,-2.670345843012061,-1.2318317849489302,-0.6002305824361949,-0.6691826151147914
BMH13,s0a1b1,0,1,1,13200,-1.9507336752068472,-2.302353069346641,-0.46839688323744266,-0.16444995712584143,-0.37649908495489615
BMH13,s0a1b2,0,1,2,13900,-1.6835359125358624,-1.0451234408595813,-0.7872667347040703,-1.0583329142172926,-0.26655579352873565
BMH13,s0a2b0,0,2,0,14400,-2.1046081018533074,-2.9890710785541836,-1.03662232967306,-0.8459761317965517,-0.564789570803984
BMH13,s0a2b1,0,2,1,17200,-1.9412320017016036,-0.6975947765130818,-0.3170493503623083,-0.9102836909950386,-0.13538546831539847
BMH13,s0a2b2,0,2,2,19500,1.9721053942817888,1.4002015398291237,-0.2623029414295858,0.46068148074918963,1.0308542010759039
BMH13,s1a0b0,1,0,0,11200,-1.245334757903564,-3.5839815028882938,1.6477252962993132,1.0440848365035584,-0.10505567495717559
BMH13,s1a0b1,1,0,1,10900,-1.1529461145859863,-3.123449043689909,-0.5736824647291225,-0.34429610880083245,-0.4454250217409136
BMH13,s1a0b2,1,0,2,10500,-0.6682129319070739,-2.824995088819414,1.047065874401875,0.5925552043724399,-0.21019298890646376
BMH13,s1a1b0,1,1,0,11400,-0.7397919229605542,-2.04337352334111,-0.5830383196511156,-1.0486707268289168,-0.49795284033057324
BMH13,s1a1b1,1,1,1,10700,-1.0079385343270708,-1.5986139091891998,-0.4613288440222223,-0.7637546028023336,-0.473985440336193
BMH13,s1a1b2,1,1,2,10800,-1.0426883118537873,-0.06482493040010946,-0.5760689379136364,-0.5267403087615654,-0.21705442609535916
BMH13,s1a2b0,1,2,0,14300,-1.960411507534067,-1.1583925090142702,-0.07780997160484258,-0.18455831131338718,-0.03943326030534579
BMH13,s1a2b1,1,2,1,11500,-1.1333211599281234,-1.3975232687951062,-0.2963259726655669,-0.7781884085992817,-0.3487603121227068
BMH13,s1a2b2,1,2,2,13300,0.2869265453317627,0.8901722694403411,-0.9619358399580281,-0.7741759078257723,0.3373633705808065
BMH13,s2a0b0,2,0,0,9900,3.6892234893908764,4.600732527903454,1.7559861813059112,1.827567295754567,0.8854013031911792
BMH13,s2a0b1,2,0,1,10000,1.696987750319546,0.385812412935532,2.5709390605535014,1.000650930664707,0.23677771954905988
BMH13,s2a0b2,2,0,2,7400,3.7498695356549105,3.918099164854223,0.4116997121435568,0.8085806943124171,0.40015987409117143
BMH13,s2a1b0,2,1,0,13500,4.435527219286565,7.268996292585724,1.4277646451469035,1.3247908077838801,0.9099013694557988
BMH13,s2a1b1,2,1,1,11100,2.3404218092467493,3.070622860220095,1.3422822279347992,0.21572190625302132,0.01040522188835619
BMH13,s2a1b2,2,1,2,9700,0.9457477605728757,3.17931263039773,0.9182459274992643,0.30112849676757264,0.044255667447627274
BMH13,s2a2b0,2,2,0,13700,3.7992691007027295,6.083674882878539,1.3954129960633515,1.5037286008170765,0.7737210651812704
BMH13,s2a2b1,2,2,1,12700,3.857676165612073,5.803392797113372,0.7546531106437588,0.4208787897769142,0.3959332138613739
BMH13,s2a2b2,2,2,2,9600,2.6622776771621295,6.686253477900086,0.9433139539976966,0.8183645698418426,0.7794116342019883
BMH17,s0a0b0,0,0,0,11000,-1.5583322318742319,-5.3305848931376065,-0.055919151642942345,-1.5025912813011706,-0.5302882750694305
BMH17,s0a0b1,0,0,1,11100,-2.087645163177252,-5.151945735257747,0.7153854912521425,-1.5184279860449332,-0.30849507770000345
BMH17,s0a0b2,0,0,2,10800,-2.962041194079595,-4.278460245972353,-0.010787827815180341,-1.4692737486662073,-0.2214598604948409
BMH17,s0a1b0,0,1,0,11500,-3.5148336099479955,-2.080024469928455,1.5336640510316242,1.2534737142301295,0.14834307733240984
BMH17,s0a1b1,0,1,1,11300,-4.284143976580442,-2.6967545091931653,1.125084579851743,-0.33103722753761344,-0.07436860544800471
BMH17,s0a1b2,0,1,2,14400,-1.9474228489786416,1.1444613013634903,-0.7522635891726205,-0.18579042475618956,-0.3240278548147389
BMH17,s0a2b0,0,2,0,12200,-3.551269639932304,-0.24580273000473643,1.7364675210900407,0.507952813982347,0.019343804492423296
BMH17,s0a2b1,0,2,1,12600,-3.5143226861730876,-2.1170879831095606,0.9269982373320674,-0.031047418583325413,-0.1562114304523312
BMH17,s0a2b2,0,2,2,14900,0.4090202706378924,2.50965168906654,0.5447074340014393,0.5900545618973256,-0.28045368375842417
BMH17,s1a0b0,1,0,0,11600,-0.034581994795165605,-4.15125815892963,-0.010289194440354404,-1.2911609656369123,-0.011413195536122894
BMH17,s1a0b1,1,0,1,10900,1.9386412451343187,-1.3633719599158114,-1.6246454753484731,-1.4842831167291795,0.21786619814908714
BMH17,s1a0b2,1,0,2,10700,0.8252884046250253,-1.838217900642207,-1.3192888863230823,-1.0223536823841028,0.13992399908267178
BMH17,s1a1b0,1,1,0,11700,0.9725431731594157,-0.8101255100372254,0.04746871441568587,-0.5990671145031972,-0.003676094715063087
BMH17,s1a1b1,1,1,1,11900,-0.802209617704353,-0.8006747409835405,-0.5964750622944016,-0.6685208138694663,0.18416348935444343
BMH17,s1a1b2,1,1,2,12500,-0.9401845995706118,-1.0486760670016526,0.4439134006427614,-0.08490066894795925,0.0700606804376016
BMH17,s1a2b0,1,2,0,11700,-1.6473970572765433,-1.4768005902192671,0.8472348249382257,-0.040139919592968906,-0.005380706574614955
BMH17,s1a2b1,1,2,1,11900,-1.0576215490985177,0.08055446489919942,0.9954670400141262,0.2620878694667592,-0.0058339785492024865
BMH17,s1a2b2,1,2,2,12300,-1.6951307649348137,0.05746469718141639,0.25615007850649535,-0.17307776023525517,-0.0400220525351256
BMH17,s2a0b0,2,0,0,10700,4.586543230335146,1.2648388614498125,-2.9297057119012044,-1.566398638528909,0.4588728172357128
BMH17,s2a0b1,2,0,1,10100,5.065872385939114,1.4236219140152993,-3.0741675007089992,-1.445700722141421,0.1939731275412999
BMH17,s2a0b2,2,0,2,8500,5.696524921546503,3.2913500261277115,-2.779805759655899,-1.3401559061255501,0.5845649072178436
BMH17,s2a1b0,2,1,0,13500,2.3739749084924893,3.635037982498137,0.5284521632467947,4.112246643532219,0.6340062615791543
BMH17,s2a1b1,2,1,1,12700,2.6649930916896367,3.5213546977711454,0.27609498806777766,1.068865915785084,0.3832082478273778
BMH17,s2a1b2,2,1,2,10200,1.246785932342618,4.284791465779789,-0.8393637516934901,0.7220861230452292,0.24401752058561255
BMH17,s2a2b0,2,2,0,13100,-0.12485922728608796,1.317422641378245,2.0545525160249403,0.683772095177999,0.34106759995760944
BMH17,s2a2b1,2,2,1,12700,3.4320871831364363,4.873279311854863,0.4174729441686711,1.558846076781105,-0.49884926561197357
BMH17,s2a2b2,2,2,2,10800,3.1976909852662176,4.638855013047447,-0.7360971774620684,2.0184126137428438,-0.9873864003087682
BMH19,s0a0b0,0,0,0,12100,-1.9685665524095035,-0.9840662561764474,-3.621156676089319,0.052581372381321725,-0.1259761173685668
BMH19,s0a0b1,0,0,1,12500,-2.0774106348947723,-0.8534284993190087,-3.040172576872611,0.2366042864918616,-0.022224983023405604
BMH19,s0a0b2,0,0,2,14600,-2.45275068019603,-1.8144215596766746,-4.6675204074369345,-0.16998266753569555,-0.08906493461634335
BMH19,s0a1b0,0,1,0,15200,-0.5759475114853789,-0.2496361624569155,-1.8299098256051214,-0.2990178283203356,-0.054784006370307156
BMH19,s0a1b1,0,1,1,12500,-0.1747057328752236,0.022739846416465866,-1.760840212703273,-0.5021435495822235,0.08567769838420806
BMH19,s0a1b2,0,1,2,12200,1.1780272989825902,0.7930418439541269,0.953343209081812,0.2910036008393802,-0.37279123553863547
BMH19,s0a2b0,0,2,0,14900,-0.4402106100436185,-0.27214014660169633,-2.087609790327531,-0.2965247238579013,-0.04941913087116505
BMH19,s0a2b1,0,2,1,13400,0.7217095967507079,0.98615772781052,-0.8608757695596874,-0.00957151306197939,0.16816180003924644
BMH19,s0a2b2,0,2,2,13500,0.8309521757975598,2.3261799129841214,1.5146809931631184,1.233981944991225,0.6983773990306282
BMH19,s1a0b0,1,0,0,12700,-2.0555471781073735,-1.8754962144005454,-3.7821452078420728,-0.09243864123680502,0.25556666680595946
BMH19,s1a0b1,1,0,1,11200,-1.3909162649469826,-0.7549611027436559,-1.4485261209818543,0.13095512983964291,-0.37452420612848814
BMH19,s1a0b2,1,0,2,12000,-1.9176678493984516,-1.3213736192540873,-2.540542745468846,-0.1689335794563826,0.024044666924294737
BMH19,s1a1b0,1,1,0,12300,-0.45825845713868035,-1.1879259462324294,-0.7706934558365663,-0.714253593835407,-0.203155835081502
BMH19,s1a1b1,1,1,1,12200,-0.27052492243265736,0.3491518703110002,0.9941289991910692,-0.17857832102147425,-0.3499139003765033
BMH19,s1a1b2,1,1,2,11600,0.6794410425894204,-0.8741409353841564,-0.0950821522005937,-0.45599343726809594,-0.6766110905644487
BMH19,s1a2b0,1,2,0,12200,0.48998682497199236,0.6091416186822776,0.7727160412363161,0.003275523277081575,-0.48568314290041703
BMH19,s1a2b1,1,2,1,11900,0.7874219295259118,-0.460227140230498,0.5949246812967784,-0.26094149987243853,-0.23310995848319202
BMH19,s1a2b2,1,2,2,11700,2.1127247470596515,1.534594957802778,3.120707117492943,1.512358865587397,-0.6464193835100367
BMH19,s2a0b0,2,0,0,11900,-1.1534785389542819,-0.8688402350464394,-0.8864024197951151,-0.5198098542949108,-0.6031046412795221
BMH19,s2a0b1,2,0,1,11200,-0.7573202070174814,-0.7825683727776758,-0.4717110736994987,-0.3079217737316335,0.45800948901006383
BMH19,s2a0b2,2,0,2,6900,-0.26946922966207215,-0.04952802982066432,0.57280120727967,-0.17793850108474546,-0.2989127938538904
BMH19,s2a1b0,2,1,0,12600,0.7623166798345621,-0.14307526129237752,1.1223405261398942,-1.5361511953252904,1.872125698464761
BMH19,s2a1b1,2,1,1,13300,0.9882775289785115,0.2963558122121071,3.225208835381846,-0.7768422199072854,1.5501387224829601
BMH19,s2a1b2,2,1,2,11000,3.614124848373622,2.217075987935345,5.737229704374974,1.6769807652850408,-1.5094239133589686
BMH19,s2a2b0,2,2,0,12700,1.2395973442587647,0.25452517341077713,2.8657748695810366,0.10740294463920051,-0.558316925601293
BMH19,s2a2b1,2,2,1,12600,1.1650145906406293,0.4193221356424808,3.5025194929308228,0.09275244614694002,-0.34890282093777886
BMH19,s2a2b2,2,2,2,11600,2.1257983332967454,3.056376223394904,5.322001065775219,1.4634634400019388,1.3794023435178342
BMH20,s0a0b0,0,0,0,12100,-0.8373554000072309,-1.5764451627346048,-0.8322955635136998,0.16286550732013064,0.20589864103784106
BMH20,s0a0b1,0,0,1,10500,-2.143831318443982,-3.554312301493859,-2.779484565082885,-0.3096257714957609,0.32000216549699384
BMH20,s0a0b2,0,0,2,11500,-1.0919822995719315,-2.6710488404802426,-0.49840217834705286,0.26547533488181146,0.04507250961758143
BMH20,s0a1b0,0,1,0,11300,1.325305108361018,0.5708556972123303,0.35157905884053364,-0.42283915592958715,-0.47671020624845956
BMH20,s0a1b1,0,1,1,11300,0.9892736329765485,0.8162112237697783,0.5702426907357793,-0.07974975189861461,-0.9003505531748002
BMH20,s0a1b2,0,1,2,14200,0.22105534842605737,-1.1839510471307644,-0.8862297865998718,-0.42446095848645893,-0.11549108024522378
BMH20,s0a2b0,0,2,0,12600,0.819047444690041,2.0880954132273977,0.5293531597509222,0.23697862296240615,0.14526608565701085
BMH20,s0a2b1,0,2,1,12900,0.2360706371492774,0.8903468553526356,0.6044918301106269,-0.5504694582853523,-0.02321166025812668
BMH20,s0a2b2,0,2,2,16100,1.2593191994294224,-0.4455991223947991,0.5855471904249944,0.3987429744506837,-0.23800380464117477
BMH20,s1a0b0,1,0,0,12200,-1.2207121540712749,-2.16860124430512,-0.8787176061306161,-0.2423867603136335,0.009765008781955055
BMH20,s1a0b1,1,0,1,12400,-0.9127930510296616,-1.0204470733829936,-0.6169455220969589,0.10018266232160106,0.5354316819795693
BMH20,s1a0b2,1,0,2,7000,-2.522279596447357,-2.296749157991845,-1.866870578788603,-0.2035915399697955,-0.0011831986249325349
BMH20,s1a1b0,1,1,0,11600,-0.5234897303460553,-0.5494658012928038,-0.30766690819777354,-0.34529527874699634,-0.36855510975966665
BMH20,s1a1b1,1,1,1,12200,1.291173716148203,2.253689677248289,1.2389198285925551,0.858010633993008,0.665747733540489
BMH20,s1a1b2,1,1,2,11600,-1.3906083755493626,-2.565400575448777,-0.9092537966229993,-0.25492933044719807,-0.1364695323267112
BMH20,s1a2b0,1,2,0,12000,0.4739096807002145,0.5584342933871277,0.17480068425775983,-0.2600629813224893,-0.3189066143821386
BMH20,s1a2b1,1,2,1,11900,0.05600991730000495,-0.17264700122553092,-0.16071996445043693,-0.12835220581613674,-0.4185940988451089
BMH20,s1a2b2,1,2,2,15000,0.1293125318148737,-1.2345776195491742,0.009066938092549564,0.15201112586384613,0.1046115271211549
BMH20,s2a0b0,2,0,0,11200,-1.7874054495951548,-0.746009705862952,-0.5309193783919718,-0.4269589790660801,0.16365730037033144
BMH20,s2a0b1,2,0,1,11600,0.8616995749087686,3.053382238677313,0.4266067245860999,0.015481334358132974,0.5399528315529672
BMH20,s2a0b2,2,0,2,8200,-1.1637528358014966,0.6526448202717835,0.04405783220617596,-0.01093612729852169,0.6424862104014105
BMH20,s2a1b0,2,1,0,11500,-0.45713005895689535,0.538940109988407,0.25103735737435023,-0.3599264856455011,-0.20503665098261853
BMH20,s2a1b1,2,1,1,11700,0.2762380960437957,0.9866380310886306,0.7222896595577294,-0.43829833091017745,-0.3040441837683649
BMH20,s2a1b2,2,1,2,13600,0.11710706007229965,-0.7789413556013887,0.04428025443202423,0.2208791671238852,-0.2168530238122293
BMH20,s2a2b0,2,2,0,13000,2.6336227895529474,4.977975197577157,1.6532252473629812,1.0520209866838228,0.19353383219147438
BMH20,s2a2b1,2,2,1,12000,1.0101655733579642,1.4683815664734927,0.5745203797919134,0.2678366743847366,-0.2675874454860502
BMH20,s2a2b2,2,2,2,12200,-0.1696231474388368,1.1007060029321816,1.1220517332566498,0.3030536279306878,0.6189879080925301
BMH21,s0a0b0,0,0,0,12400,0.2619622470022865,-3.8759058980525456,-1.0049900715313735,0.8108316229395341,-0.20443298837032833
BMH21,s0a0b1,0,0,1,12300,0.498424042313283,-3.077261698098958,-0.9183778487285136,0.8285437311383098,-0.265879959070399
BMH21,s0a0b2,0,0,2,13400,-0.17150806396279797,-4.679458892644339,-1.2745779501370087,0.6713556523946069,-0.11602866684499097
BMH21,s0a1b0,0,1,0,11700,-1.8295539315447595,0.7469455587396935,1.2690609623233882,-0.6651559133274227,0.2391914474260486
BMH21,s0a1b1,0,1,1,11100,0.06600132570935072,-0.006109728869344646,0.8934514542883081,-0.08523644285612038,0.11334183138889711
BMH21,s0a1b2,0,1,2,14500,-1.3365134994688974,0.631787073299811,0.5430831131205104,-0.601117961470834,0.49822390280839557
BMH21,s0a2b0,0,2,0,12100,-1.9828144418123237,-0.22116383636274944,0.62144481649617,-0.2957442963395161,-0.17571337084401556
BMH21,s0a2b1,0,2,1,14600,-1.324633491232282,0.07888907253760089,0.5733931462528252,-0.7447707193241241,0.3418565737855764
BMH21,s0a2b2,0,2,2,12700,-1.9786723612969925,-0.4280979625805259,0.1622426864238328,-0.5870519766146898,0.16078987373044137
BMH21,s1a0b0,1,0,0,12500,0.8611421442159691,-2.942061292649438,-0.9477232458309546,0.8423062397814544,-0.20331469473534436
BMH21,s1a0b1,1,0,1,12600,0.49179280993131635,-4.072064350634594,-0.9903803570416445,0.7598617896336466,-0.13059101644272644
BMH21,s1a0b2,1,0,2,11900,0.9493296974845714,-2.614076591230666,-0.8857017408688732,0.3546836765568485,-0.17525994125174885
BMH21,s1a1b0,1,1,0,11100,-0.7245690607138162,-0.6038639046087694,-0.6146038291924586,0.7116249892541129,-0.36836281719707625
BMH21,s1a1b1,1,1,1,11200,0.3146319287515131,-0.5957442984574152,0.24682541185584653,0.40657596411971303,-0.2236666474292605
BMH21,s1a1b2,1,1,2,12000,-0.2608269616178848,-0.4232431628216165,-0.15395949856499236,0.44231057589886724,-0.1343462645856996
BMH21,s1a2b0,1,2,0,10400,-1.1721489888673327,-0.2319174722082003,0.6285863653938404,0.14880367148573487,-0.10617345095964131
BMH21,s1a2b1,1,2,1,10900,-0.726239992045406,-0.33513684686620376,0.242099095157279,0.06476411667446078,-0.13976267209993778
BMH21,s1a2b2,1,2,2,12300,-1.0983667052353345,0.09682737807448255,0.005587913090876488,-0.29453948239297817,0.15345664486359734
BMH21,s2a0b0,2,0,0,15500,1.680281293846929,1.7723622722464745,-0.2923527879346023,0.0843870091461508,0.1718191651771631
BMH21,s2a0b1,2,0,1,10900,1.5997739060765286,4.274271399629367,-0.1020518078784759,-0.36075876221571623,-0.3026658247045204
BMH21,s2a0b2,2,0,2,12000,1.3064229911942653,1.1955810331313712,-0.25012133361658506,0.4265132335297814,-0.048605111848506015
BMH21,s2a1b0,2,1,0,20000,1.0326504824587792,2.809181923049231,0.20439909328452946,-0.18225448634819646,0.12817014758888196
BMH21,s2a1b1,2,1,1,12000,1.24786851636763,1.8662634221037613,0.217323077617461,0.164171508899792,-0.42486688324801813
BMH21,s2a1b2,2,1,2,11000,0.04644971156195325,1.793700292798643,0.024615422414974077,-0.4846948980284529,-0.3108448216993912
BMH21,s2a2b0,2,2,0,11300,0.015812154491521322,0.04330781192306127,0.6771927246002133,0.06523085233601615,0.08274463265215577
BMH21,s2a2b1,2,2,1,13000,0.5429249828269589,6.588209755869697,1.2998217229876974,-2.067469235109007,1.1283306555628412
BMH21,s2a2b2,2,2,2,12600,0.9449056873866892,0.5881527285359093,-0.08731100245233156,0.003865329579929603,-0.16183215818615
